Data from USB2E24401__1__16-55-06-024.txt Node

Date: Tue Dec 17 16:55:06 CST 2024
User: goldsmith
Spectrometer: USB2E2440
Trigger mode: 4
Integration Time (sec): 7.500000E-2
Scans to average: 15
Electric dark correction enabled: true
Nonlinearity correction enabled: false
Boxcar width: 0
XAxis mode: Wavelengths
Number of Pixels in Spectrum: 2048
>>>>>Begin Spectral Data<<<<<
500.005	59.25
500.353	58.19
500.7	60.12
501.048	60.45
501.396	63.52
501.743	59.59
502.09	61.05
502.438	61.25
502.785	64.99
503.133	65.99
503.48	66.25
503.827	67.59
504.174	68.25
504.522	69.39
504.869	71.65
505.216	72.32
505.563	72.79
505.91	76.19
506.257	78.25
506.604	77.25
506.951	78.32
507.298	80.72
507.645	83.05
507.992	84.79
508.338	84.59
508.685	89.25
509.032	86.32
509.379	89.39
509.725	90.72
510.072	91.05
510.418	92.52
510.765	95.19
511.112	94.45
511.458	96.99
511.804	98.39
512.151	99.12
512.497	100.85
512.844	100.99
513.19	103.19
513.536	103.25
513.882	108.25
514.228	108.12
514.575	110.92
514.921	107.99
515.267	109.12
515.613	110.79
515.959	113.19
516.305	112.72
516.651	115.32
516.997	115.65
517.342	119.39
517.688	118.45
518.034	119.92
518.38	121.45
518.726	121.59
519.071	125.85
519.417	124.85
519.762	124.05
520.108	129.45
520.453	128.32
520.799	131.25
521.144	133.12
521.49	135.32
521.835	133.72
522.181	137.72
522.526	139.65
522.871	142.59
523.216	142.25
523.561	139.92
523.907	145.92
524.252	149.79
524.597	152.19
524.942	152.85
525.287	152.99
525.632	155.19
525.977	157.39
526.322	159.79
526.666	161.45
527.011	163.65
527.356	166.72
527.701	166.45
528.046	170.12
528.39	169.92
528.735	176.25
529.079	176.19
529.424	180.65
529.768	182.85
530.113	185.59
530.457	190.45
530.802	193.19
531.146	196.32
531.49	197.19
531.835	202.85
532.179	205.99
532.523	208.99
532.867	213.19
533.212	216.12
533.556	221.45
533.9	224.19
534.244	228.99
534.588	229.05
534.932	232.72
535.276	237.32
535.619	242.39
535.963	245.79
536.307	251.05
536.651	253.99
536.995	256.05
537.338	260.45
537.682	267.05
538.025	269.25
538.369	273.65
538.713	280.72
539.056	286.05
539.399	289.25
539.743	293.05
540.086	299.45
540.43	302.72
540.773	306.59
541.116	314.25
541.459	326.45
541.803	330.39
542.146	338.39
542.489	345.32
542.832	351.45
543.175	353.52
543.518	361.99
543.861	367.92
544.204	375.72
544.547	383.65
544.89	391.65
545.232	401.59
545.575	404.92
545.918	409.85
546.26	425.19
546.603	432.92
546.946	439.72
547.288	449.25
547.631	464.79
547.973	465.99
548.316	479.39
548.658	486.79
549.001	492.92
549.343	496.59
549.685	501.92
550.027	510.59
550.37	515.79
550.712	527.79
551.054	535.25
551.396	539.79
551.738	543.59
552.08	558.99
552.422	563.39
552.764	567.19
553.106	574.25
553.448	588.52
553.79	597.52
554.131	611.99
554.473	618.59
554.815	632.65
555.157	641.12
555.498	657.32
555.84	663.99
556.181	677.85
556.523	697.79
556.864	703.25
557.206	705.85
557.547	723.79
557.889	730.52
558.23	738.72
558.571	752.72
558.912	751.99
559.254	772.72
559.595	786.52
559.936	789.72
560.277	795.52
560.618	804.52
560.959	822.05
561.3	825.65
561.641	829.25
561.982	836.05
562.323	847.05
562.663	855.25
563.004	867.65
563.345	869.65
563.686	877.52
564.026	895.19
564.367	903.32
564.707	912.19
565.048	923.59
565.388	930.12
565.729	932.45
566.069	944.32
566.41	952.99
566.75	953.72
567.09	955.79
567.431	960.72
567.771	976.39
568.111	983.25
568.451	992.32
568.791	1001.32
569.131	994.52
569.471	1001.85
569.811	1017.19
570.151	1031.05
570.491	1030.99
570.831	1029.39
571.171	1040.79
571.51	1049.92
571.85	1049.12
572.19	1045.72
572.529	1046.12
572.869	1050.85
573.209	1049.45
573.548	1066.32
573.888	1063.99
574.227	1056.92
574.566	1062.99
574.906	1074.05
575.245	1072.99
575.584	1082.92
575.924	1082.92
576.263	1093.25
576.602	1085.19
576.941	1084.32
577.28	1080.25
577.619	1089.99
577.958	1102.25
578.297	1101.19
578.636	1098.39
578.975	1107.79
579.314	1114.05
579.653	1111.05
579.991	1119.25
580.33	1131.59
580.669	1136.05
581.007	1148.19
581.346	1144.99
581.685	1134.45
582.023	1147.72
582.361	1148.59
582.7	1143.52
583.038	1156.19
583.377	1162.32
583.715	1170.52
584.053	1171.05
584.391	1176.12
584.73	1181.19
585.068	1190.25
585.406	1199.92
585.744	1202.45
586.082	1189.99
586.42	1195.45
586.758	1201.32
587.096	1187.25
587.434	1192.72
587.771	1201.39
588.109	1209.59
588.447	1206.79
588.785	1205.59
589.122	1191.32
589.46	1184.52
589.797	1191.72
590.135	1188.25
590.472	1194.85
590.81	1192.32
591.147	1187.92
591.484	1180.39
591.822	1175.19
592.159	1166.45
592.496	1162.99
592.833	1170.52
593.171	1161.65
593.508	1156.39
593.845	1147.32
594.182	1146.72
594.519	1148.72
594.856	1143.65
595.193	1139.85
595.529	1118.79
595.866	1114.32
596.203	1102.79
596.54	1097.65
596.876	1104.59
597.213	1098.25
597.55	1096.65
597.886	1084.79
598.223	1079.85
598.559	1076.52
598.896	1068.25
599.232	1062.79
599.568	1050.79
599.905	1057.85
600.241	1052.85
600.577	1048.99
600.913	1036.39
601.25	1031.99
601.586	1026.05
601.922	1006.79
602.258	1001.12
602.594	1003.25
602.93	1001.12
603.265	1000.99
603.601	984.25
603.937	975.65
604.273	990.99
604.609	974.25
604.944	974.52
605.28	976.65
605.615	971.85
605.951	972.92
606.287	957.65
606.622	955.45
606.957	956.79
607.293	937.25
607.628	937.85
607.963	943.25
608.299	942.59
608.634	938.72
608.969	945.45
609.304	947.39
609.639	951.52
609.974	951.72
610.309	947.32
610.644	951.79
610.979	956.85
611.314	942.59
611.649	938.12
611.984	937.52
612.318	938.05
612.653	939.32
612.988	923.79
613.322	931.52
613.657	942.99
613.991	940.65
614.326	939.25
614.66	948.85
614.995	940.52
615.329	939.85
615.663	956.05
615.997	949.65
616.332	937.72
616.666	939.92
617	940.92
617.334	943.25
617.668	937.12
618.002	932.39
618.336	912.79
618.67	923.25
619.004	929.32
619.338	920.79
619.671	923.05
620.005	927.39
620.339	923.19
620.673	919.85
621.006	928.92
621.34	925.45
621.673	913.59
622.007	913.12
622.34	918.79
622.674	916.19
623.007	913.05
623.34	923.45
623.673	915.72
624.007	912.92
624.34	916.32
624.673	926.05
625.006	933.32
625.339	936.72
625.672	931.72
626.005	948.12
626.338	957.79
626.671	969.05
627.004	974.92
627.336	990.32
627.669	975.65
628.002	971.92
628.335	975.45
628.667	985.45
629	988.39
629.332	996.99
629.665	1025.72
629.997	1030.79
630.33	1040.72
630.662	1052.39
630.994	1067.92
631.326	1078.32
631.659	1089.45
631.991	1099.59
632.323	1096.52
632.655	1097.52
632.987	1104.12
633.319	1123.52
633.651	1141.05
633.983	1161.25
634.315	1183.65
634.646	1200.39
634.978	1225.65
635.31	1231.05
635.642	1255.72
635.973	1276.65
636.305	1283.32
636.636	1279.85
636.968	1293.32
637.299	1297.85
637.631	1306.32
637.962	1324.79
638.293	1343.72
638.625	1368.25
638.956	1376.32
639.287	1389.32
639.618	1414.39
639.949	1433.59
640.28	1429.19
640.611	1449.65
640.942	1450.05
641.273	1466.59
641.604	1484.25
641.935	1504.39
642.266	1537.59
642.597	1558.65
642.927	1580.19
643.258	1597.19
643.588	1618.39
643.919	1619.39
644.25	1638.05
644.58	1643.39
644.91	1668.32
645.241	1693.79
645.571	1704.72
645.901	1733.99
646.232	1745.45
646.562	1762.99
646.892	1782.12
647.222	1803.25
647.552	1830.25
647.882	1865.85
648.212	1873.52
648.542	1878.19
648.872	1904.19
649.202	1920.99
649.532	1931.99
649.861	1940.59
650.191	1944.99